Date,High,Low,Open,Close,Volume,Adj Close
2020-02-25,109.56999969482422,106.70999908447266,109.22000122070312,106.94000244140625,641400.0,105.67882537841797
2020-02-26,106.55999755859375,102.7699966430664,104.0,104.68000030517578,504500.0,103.44548034667969
2020-02-27,104.76000213623047,101.94999694824219,103.4000015258789,102.4000015258789,670500.0,101.19236755371094
2020-02-28,102.20999908447266,99.31999969482422,99.7300033569336,101.06999969482422,690800.0,99.87804412841797
2020-03-02,103.76000213623047,100.80999755859375,101.62000274658203,103.58000183105469,331800.0,102.35844421386719
2020-03-03,105.72000122070312,102.19999694824219,103.79000091552734,102.76000213623047,353300.0,101.5481185913086
2020-03-04,107.62999725341797,104.44000244140625,105.38999938964844,107.44000244140625,294500.0,106.17292022705078
2020-03-05,105.80000305175781,102.63999938964844,105.33999633789062,103.9800033569336,273800.0,102.75373077392578
2020-03-06,107.41000366210938,101.33000183105469,101.61000061035156,107.30000305175781,624000.0,106.03458404541016
2020-03-09,105.0,99.4800033569336,102.73999786376953,101.44999694824219,597100.0,100.25357055664062
2020-03-10,103.98999786376953,99.38999938964844,103.5999984741211,103.98999786376953,522300.0,102.76361083984375
2020-03-11,101.66999816894531,97.91999816894531,101.66999816894531,99.08000183105469,705800.0,97.91152954101562
2020-03-12,96.4000015258789,87.5,92.4800033569336,94.4000015258789,843100.0,93.28671264648438
2020-03-13,99.44000244140625,91.12000274658203,98.08000183105469,96.38999938964844,596000.0,95.25324249267578
2020-03-16,94.4800033569336,87.4000015258789,87.4000015258789,87.87999725341797,667400.0,86.84359741210938
2020-03-17,96.94999694824219,89.4800033569336,89.94999694824219,96.44999694824219,595700.0,95.31253814697266
2020-03-18,96.9800033569336,90.33999633789062,91.69000244140625,96.75,762000.0,95.60900115966797
2020-03-19,101.22000122070312,93.58999633789062,96.48999786376953,98.87999725341797,354700.0,97.71387481689453
2020-03-20,99.9800033569336,89.12999725341797,98.80999755859375,92.51000213623047,727300.0,91.41900634765625
2020-03-23,93.23999786376953,79.83999633789062,92.05999755859375,83.93000030517578,698800.0,82.940185546875
2020-03-24,88.31999969482422,82.69000244140625,87.2699966430664,88.05999755859375,535600.0,87.021484375
2020-03-25,93.66000366210938,86.22000122070312,89.0,90.18000030517578,576200.0,89.1164779663086
2020-03-26,97.33999633789062,90.22000122070312,90.8499984741211,96.19999694824219,447000.0,95.06548309326172
2020-03-27,95.83999633789062,92.0999984741211,94.54000091552734,94.0,482000.0,92.89142608642578
2020-03-30,100.95999908447266,94.37000274658203,94.97000122070312,100.4800033569336,435400.0,99.29501342773438
2020-03-31,102.75,97.44000244140625,100.5199966430664,99.54000091552734,531000.0,98.36609649658203
2020-04-01,98.68000030517578,95.44000244140625,97.70999908447266,96.20999908447266,296500.0,95.07537078857422
2020-04-02,97.13999938964844,94.12000274658203,95.80999755859375,96.1500015258789,455700.0,95.01607513427734
2020-04-03,97.41999816894531,93.36000061035156,94.87999725341797,94.19000244140625,370300.0,93.07919311523438
2020-04-06,101.18000030517578,97.06999969482422,97.06999969482422,100.76000213623047,503200.0,99.57171630859375
2020-04-07,103.55000305175781,99.22000122070312,103.55000305175781,101.12000274658203,378000.0,99.92745971679688
2020-04-08,105.29000091552734,100.63999938964844,102.6500015258789,104.11000061035156,328500.0,102.8822021484375
2020-04-09,108.02999877929688,104.2300033569336,105.04000091552734,107.2699966430664,399300.0,106.00492858886719
2020-04-13,107.43000030517578,102.30000305175781,106.98999786376953,102.3499984741211,234000.0,101.14295196533203
2020-04-14,105.37000274658203,103.36000061035156,104.55999755859375,104.0199966430664,239700.0,102.79325103759766
2020-04-15,104.19000244140625,100.61000061035156,102.27999877929688,100.93000030517578,441400.0,99.73970794677734
2020-04-16,103.02999877929688,99.68000030517578,103.02999877929688,101.8499984741211,294000.0,100.64884948730469
2020-04-17,105.0199966430664,102.4000015258789,103.86000061035156,102.94000244140625,256200.0,101.72600555419922
2020-04-20,107.94000244140625,101.12999725341797,101.86000061035156,106.94000244140625,856400.0,105.67882537841797
2020-04-21,106.98999786376953,104.12000274658203,105.8499984741211,106.12000274658203,475500.0,104.8685073852539
2020-04-22,107.04000091552734,104.12000274658203,106.98999786376953,106.30000305175781,436400.0,105.04637145996094
2020-04-23,107.31999969482422,104.94999694824219,106.62000274658203,105.0199966430664,347600.0,103.78146362304688
2020-04-24,105.41000366210938,103.08999633789062,105.41000366210938,104.12000274658203,377000.0,102.89208221435547
2020-04-27,114.0999984741211,106.87999725341797,109.33000183105469,112.58000183105469,457700.0,111.2523193359375
2020-04-28,114.66000366210938,110.98999786376953,112.5999984741211,111.18000030517578,274600.0,110.22127532958984
2020-04-29,113.62999725341797,109.81999969482422,112.55999755859375,110.08000183105469,236600.0,109.13076782226562
2020-04-30,110.06999969482422,106.33999633789062,108.98999786376953,107.08000183105469,730600.0,106.1566390991211
2020-05-01,110.55999755859375,104.70999908447266,110.55999755859375,106.13999938964844,506200.0,105.22474670410156
2020-05-04,107.33000183105469,105.08000183105469,105.52999877929688,106.80999755859375,324300.0,105.88896179199219
2020-05-05,107.62999725341797,105.4000015258789,106.77999877929688,105.55999755859375,332500.0,104.64974212646484
2020-05-06,107.05000305175781,104.76000213623047,106.7699966430664,104.86000061035156,234000.0,103.95578002929688
2020-05-07,106.88999938964844,105.13999938964844,105.5199966430664,105.47000122070312,285200.0,104.5605239868164
2020-05-08,107.98999786376953,106.55999755859375,106.9800033569336,107.52999877929688,259700.0,106.60275268554688
2020-05-11,107.51000213623047,106.08000183105469,106.66000366210938,106.30999755859375,344000.0,105.39327239990234
2020-05-12,106.43000030517578,103.8499984741211,106.43000030517578,103.94999694824219,233300.0,103.05361938476562
2020-05-13,103.38999938964844,101.6500015258789,103.38999938964844,102.41999816894531,267100.0,101.53681945800781
2020-05-14,102.62000274658203,99.11000061035156,101.01000213623047,102.45999908447266,246200.0,101.57646942138672
2020-05-15,101.69999694824219,100.05000305175781,101.47000122070312,101.5,476400.0,100.624755859375
2020-05-18,105.1500015258789,102.94999694824219,104.06999969482422,104.1500015258789,304500.0,103.25190734863281
2020-05-19,105.75,103.16000366210938,103.79000091552734,103.7300033569336,214700.0,102.83553314208984
2020-05-20,105.5199966430664,104.08000183105469,104.44999694824219,104.41000366210938,146200.0,103.5096664428711
2020-05-21,105.70999908447266,104.44000244140625,104.44000244140625,105.08999633789062,233900.0,104.18379211425781
2020-05-22,105.25,103.70999908447266,104.97000122070312,105.0999984741211,151200.0,104.1937026977539
2020-05-26,110.19000244140625,106.77999877929688,107.33999633789062,109.55000305175781,332200.0,108.60533905029297
2020-05-27,112.6500015258789,110.3499984741211,111.06999969482422,112.55000305175781,290400.0,111.57947540283203
2020-05-28,113.33000183105469,110.94000244140625,113.33000183105469,111.5999984741211,233600.0,110.63765716552734
2020-05-29,111.52999877929688,109.70999908447266,111.0999984741211,111.38999938964844,215300.0,110.42947387695312
2020-06-01,111.87999725341797,110.5999984741211,111.27999877929688,111.41999816894531,277000.0,110.4592056274414
2020-06-02,112.47000122070312,110.94000244140625,111.75,112.06999969482422,224900.0,111.10359954833984
2020-06-03,114.0999984741211,112.69999694824219,112.69999694824219,113.27999877929688,196600.0,112.30316925048828
2020-06-04,113.5,111.0199966430664,113.5,112.13999938964844,182500.0,111.17300415039062
2020-06-05,114.27999877929688,112.91000366210938,113.80000305175781,113.4000015258789,235500.0,112.42213439941406
2020-06-08,114.0,112.29000091552734,112.81999969482422,113.58000183105469,244700.0,112.6005859375
2020-06-09,113.44999694824219,111.91000366210938,112.77999877929688,112.47000122070312,292100.0,111.50016021728516
2020-06-10,113.0,110.81999969482422,113.0,111.63999938964844,366600.0,110.67731475830078
2020-06-11,110.61000061035156,104.20999908447266,110.0,104.25,376900.0,103.35103607177734
2020-06-12,107.52999877929688,103.08000183105469,106.69000244140625,105.36000061035156,247300.0,104.45146942138672
2020-06-15,106.54000091552734,103.06999969482422,103.44000244140625,105.41000366210938,235900.0,104.50103759765625
2020-06-16,109.08999633789062,106.86000061035156,108.30000305175781,107.38999938964844,252600.0,106.46395874023438
2020-06-17,108.6500015258789,106.37000274658203,108.19000244140625,106.91000366210938,208800.0,105.98809814453125
2020-06-18,107.97000122070312,105.97000122070312,106.27999877929688,106.98999786376953,217800.0,106.0674057006836
2020-06-19,107.98999786376953,106.0999984741211,107.20999908447266,107.5999984741211,303700.0,106.67214965820312
2020-06-22,107.66999816894531,105.5,106.94000244140625,107.55000305175781,241900.0,106.6225814819336
2020-06-23,108.45999908447266,106.91999816894531,108.45999908447266,107.44000244140625,228300.0,106.5135269165039
2020-06-24,107.5199966430664,105.8499984741211,106.58000183105469,105.94000244140625,433900.0,105.0264663696289
2020-06-25,107.62999725341797,103.77999877929688,105.41000366210938,107.5999984741211,263600.0,106.67214965820312
2020-06-26,108.69000244140625,106.16999816894531,107.12000274658203,107.72000122070312,924200.0,106.7911148071289
2020-06-29,110.19000244140625,107.88999938964844,108.23999786376953,109.25,189300.0,108.30792236328125
2020-06-30,112.27999877929688,109.12999725341797,109.12999725341797,111.9800033569336,421800.0,111.0143814086914
2020-07-01,112.66999816894531,110.94999694824219,111.91000366210938,112.4800033569336,247900.0,111.51007080078125
2020-07-02,115.01000213623047,113.44000244140625,113.44000244140625,114.97000122070312,271400.0,113.97859954833984
2020-07-06,116.66000366210938,114.18000030517578,115.98999786376953,115.26000213623047,330900.0,114.26609802246094
2020-07-07,116.0,114.18000030517578,114.63999938964844,115.1500015258789,346500.0,114.15704345703125
2020-07-08,115.75,112.58999633789062,114.79000091552734,112.93000030517578,205900.0,111.95618438720703
2020-07-09,114.13999938964844,111.41000366210938,113.16000366210938,113.76000213623047,307200.0,112.7790298461914
2020-07-10,115.16999816894531,112.4000015258789,114.16999816894531,114.94999694824219,244500.0,113.9587631225586
2020-07-13,116.2699966430664,113.2699966430664,114.95999908447266,113.43000030517578,289000.0,112.45187377929688
2020-07-14,116.5,113.69000244140625,113.76000213623047,116.30999755859375,193600.0,115.30703735351562
2020-07-15,118.29000091552734,116.54000091552734,117.44000244140625,117.9000015258789,326900.0,116.88333129882812
2020-07-16,118.48999786376953,116.80000305175781,118.04000091552734,117.23999786376953,252900.0,116.22901916503906
2020-07-17,119.70999908447266,117.33999633789062,118.0,119.4000015258789,249000.0,118.37039947509766
2020-07-20,119.75,118.2699966430664,119.4000015258789,119.29000091552734,183200.0,118.26134490966797
2020-07-21,119.87000274658203,117.66999816894531,119.58000183105469,118.18000030517578,394300.0,117.16091918945312
2020-07-22,118.9800033569336,117.41000366210938,118.25,118.5,414600.0,117.4781494140625
2020-07-23,119.2300033569336,118.08999633789062,118.38999938964844,118.44000244140625,286700.0,117.4186782836914
2020-07-24,119.79000091552734,118.37999725341797,119.0,118.8499984741211,244700.0,117.82514190673828
2020-07-27,120.44999694824219,118.5,118.83000183105469,119.8499984741211,281800.0,118.81651306152344
2020-07-28,119.80999755859375,117.77999877929688,119.80999755859375,118.05000305175781,208600.0,117.38463592529297
2020-07-29,119.41000366210938,117.33000183105469,118.72000122070312,118.80999755859375,251200.0,118.14035034179688
2020-07-30,118.91000366210938,116.69999694824219,117.75,117.91000366210938,359800.0,117.24542236328125
2020-07-31,117.9000015258789,111.22000122070312,115.0,115.19999694824219,668100.0,114.55069732666016
2020-08-03,119.68000030517578,114.8499984741211,116.8499984741211,118.66000366210938,292900.0,117.99120330810547
2020-08-04,120.18000030517578,118.22000122070312,118.94999694824219,118.62000274658203,233100.0,117.95142364501953
2020-08-05,120.66999816894531,118.22000122070312,119.55999755859375,118.36000061035156,164700.0,117.6928939819336
2020-08-06,120.11000061035156,116.68000030517578,118.81999969482422,117.66000366210938,246500.0,116.99684143066406
2020-08-07,119.37000274658203,116.77999877929688,117.06999969482422,119.25,202300.0,118.57787322998047
2020-08-10,119.58000183105469,116.9000015258789,119.58000183105469,117.0,204700.0,116.3405532836914
2020-08-11,119.3499984741211,116.52999877929688,118.0199966430664,116.73999786376953,214100.0,116.08201599121094
2020-08-12,118.56999969482422,116.75,116.91999816894531,118.08999633789062,171800.0,117.42440795898438
2020-08-13,119.47000122070312,117.23999786376953,117.23999786376953,118.5199966430664,213800.0,117.85198211669922
2020-08-14,119.63999938964844,117.69999694824219,117.87999725341797,118.48999786376953,134600.0,117.82215118408203
2020-08-17,119.91999816894531,118.01000213623047,119.13999938964844,118.25,160500.0,117.58351135253906
2020-08-18,118.63999938964844,116.7699966430664,117.91000366210938,117.87999725341797,171500.0,117.21558380126953
2020-08-19,119.37000274658203,117.31999969482422,118.69999694824219,117.69000244140625,145600.0,117.02667236328125
2020-08-20,118.12999725341797,116.5999984741211,117.05999755859375,117.55000305175781,159400.0,116.88745880126953
2020-08-21,118.3499984741211,116.4000015258789,117.12000274658203,117.80000305175781,199200.0,117.13604736328125
2020-08-24,119.76000213623047,118.19999694824219,118.19999694824219,119.11000061035156,224000.0,118.43865966796875
2020-08-25,119.54000091552734,117.93000030517578,119.54000091552734,118.12999725341797,114400.0,117.46417999267578
2020-08-26,119.0,117.55999755859375,117.98999786376953,118.5999984741211,120000.0,117.93153381347656
2020-08-27,120.62000274658203,118.5,118.62999725341797,120.05000305175781,209800.0,119.37336730957031
2020-08-28,119.69999694824219,118.0,119.69999694824219,118.12999725341797,295200.0,117.46417999267578
2020-08-31,119.16000366210938,117.77999877929688,118.58000183105469,118.38999938964844,182500.0,117.72272491455078
2020-09-01,119.63999938964844,117.94000244140625,117.94000244140625,119.5,133900.0,118.82646179199219
2020-09-02,122.44000244140625,118.97000122070312,119.75,122.26000213623047,153800.0,121.57090759277344
2020-09-03,122.27999877929688,118.5,122.27999877929688,119.16999816894531,227200.0,118.49832153320312
2020-09-04,120.30000305175781,116.48999786376953,120.04000091552734,118.72000122070312,224200.0,118.05085754394531
2020-09-08,118.12999725341797,116.04000091552734,118.12999725341797,116.05999755859375,164600.0,115.40585327148438
2020-09-09,118.62999725341797,116.63999938964844,116.63999938964844,117.88999938964844,154000.0,117.22553253173828
2020-09-10,118.91000366210938,116.70999908447266,118.16999816894531,117.19000244140625,253500.0,116.52948760986328
2020-09-11,118.70999908447266,117.12999725341797,117.87999725341797,118.36000061035156,124600.0,117.6928939819336
2020-09-14,120.05999755859375,118.47000122070312,119.37000274658203,119.08000183105469,129000.0,118.40882873535156
2020-09-15,119.80000305175781,118.12000274658203,119.44000244140625,118.33000183105469,125600.0,117.6630630493164
2020-09-16,119.58000183105469,117.56999969482422,119.58000183105469,117.7699966430664,232000.0,117.10621643066406
2020-09-17,117.23999786376953,115.08000183105469,116.5,115.95999908447266,354500.0,115.3064193725586
2020-09-18,116.75,114.2300033569336,116.58000183105469,115.04000091552734,555700.0,114.3916015625
2020-09-21,114.04000091552734,111.81999969482422,113.5999984741211,113.44999694824219,251500.0,112.81056213378906
2020-09-22,114.66999816894531,113.55999755859375,113.97000122070312,114.33000183105469,292400.0,113.68560028076172
2020-09-23,114.52999877929688,111.70999908447266,114.19999694824219,112.13999938964844,172300.0,111.50794219970703
2020-09-24,113.16999816894531,111.16000366210938,111.9000015258789,112.26000213623047,274300.0,111.62727355957031
2020-09-25,112.58000183105469,111.45999908447266,111.45999908447266,112.0999984741211,254100.0,111.46817016601562
2020-09-28,114.22000122070312,112.04000091552734,113.16999816894531,112.36000061035156,230000.0,111.7267074584961
2020-09-29,113.3499984741211,111.75,112.05999755859375,112.62000274658203,230000.0,111.98523712158203
2020-09-30,114.05999755859375,112.5,113.2699966430664,113.19999694824219,200500.0,112.56196594238281
2020-10-01,114.97000122070312,113.13999938964844,113.44999694824219,113.69999694824219,166000.0,113.05915069580078
2020-10-02,114.18000030517578,112.30999755859375,112.30999755859375,112.8499984741211,166800.0,112.21394348144531
2020-10-05,114.93000030517578,113.20999908447266,113.36000061035156,114.55000305175781,151300.0,113.90436553955078
2020-10-06,115.9000015258789,113.91999816894531,115.01000213623047,114.55999755859375,224000.0,113.91429901123047
2020-10-07,116.16999816894531,114.5,115.08999633789062,114.9800033569336,173200.0,114.33193969726562
2020-10-08,116.79000091552734,115.5199966430664,115.80000305175781,116.5199966430664,138000.0,115.8632583618164
2020-10-09,118.38999938964844,116.19000244140625,118.12000274658203,116.80999755859375,148700.0,116.15161895751953
2020-10-12,118.83000183105469,116.69999694824219,117.05000305175781,118.04000091552734,138100.0,117.37469482421875
2020-10-13,118.91000366210938,117.25,117.7300033569336,117.55999755859375,159000.0,116.89739227294922
2020-10-14,118.02999877929688,116.04000091552734,117.5,116.44000244140625,98900.0,115.7837142944336
2020-10-15,116.58999633789062,114.22000122070312,114.72000122070312,116.33999633789062,116900.0,115.68427276611328
2020-10-16,117.2300033569336,116.19000244140625,116.70999908447266,116.3499984741211,97700.0,115.6942138671875
2020-10-19,116.63999938964844,114.58000183105469,116.63999938964844,115.1500015258789,113700.0,114.50098419189453
2020-10-20,117.55999755859375,115.22000122070312,116.05000305175781,116.95999908447266,192600.0,116.30078125
2020-10-21,118.76000213623047,117.2699966430664,117.2699966430664,117.73999786376953,133700.0,117.07638549804688
2020-10-22,118.4800033569336,116.75,117.88999938964844,118.30999755859375,164100.0,117.64317321777344
2020-10-23,118.97000122070312,117.4800033569336,118.75,118.3499984741211,105600.0,117.68294525146484
2020-10-26,117.48999786376953,115.93000030517578,117.3499984741211,117.45999908447266,114100.0,116.79795837402344
2020-10-27,117.19000244140625,115.61000061035156,117.16999816894531,115.6500015258789,125000.0,115.35169982910156
2020-10-28,114.61000061035156,112.25,114.11000061035156,112.33999633789062,170500.0,112.05023193359375
2020-10-29,113.0999984741211,110.33999633789062,112.30000305175781,112.94000244140625,279100.0,112.64868927001953
2020-10-30,116.76000213623047,113.54000091552734,116.25,114.08999633789062,377900.0,113.79572296142578
2020-11-02,118.29000091552734,114.66999816894531,115.16999816894531,118.19000244140625,215600.0,117.8851547241211
2020-11-03,121.45999908447266,118.33000183105469,118.5,119.55999755859375,242400.0,119.2516098022461
2020-11-04,120.0199966430664,118.0999984741211,120.0,119.05000305175781,150600.0,118.74293518066406
2020-11-05,123.0999984741211,120.43000030517578,120.61000061035156,122.91000366210938,185500.0,122.59297943115234
2020-11-06,124.61000061035156,122.47000122070312,123.58999633789062,123.5999984741211,220300.0,123.28119659423828
2020-11-09,128.86000061035156,122.11000061035156,127.62000274658203,123.16999816894531,336500.0,122.85230255126953
2020-11-10,128.8000030517578,122.94999694824219,123.38999938964844,127.61000061035156,326100.0,127.28085327148438
2020-11-11,127.75,124.37000274658203,127.75,125.2699966430664,194700.0,124.94688415527344
2020-11-12,125.20999908447266,122.58999633789062,124.23999786376953,124.2699966430664,126300.0,123.949462890625
2020-11-13,126.0,124.0999984741211,124.8499984741211,125.06999969482422,126300.0,124.74740600585938
2020-11-16,127.0,125.56999969482422,126.27999877929688,126.86000061035156,207400.0,126.53278350830078
2020-11-17,128.10000610351562,125.69999694824219,126.26000213623047,127.36000061035156,191200.0,127.031494140625
2020-11-18,127.86000061035156,125.97000122070312,127.43000030517578,126.37000274658203,173100.0,126.04405212402344
2020-11-19,127.62000274658203,126.0,126.69999694824219,127.2300033569336,213900.0,126.9018325805664
2020-11-20,128.36000061035156,127.19000244140625,127.51000213623047,127.80999755859375,237300.0,127.48033142089844
2020-11-23,129.1199951171875,126.4000015258789,128.05999755859375,126.86000061035156,182300.0,126.53278350830078
2020-11-24,128.47000122070312,126.87999725341797,128.16000366210938,127.87999725341797,237200.0,127.55015563964844
2020-11-25,128.47999572753906,125.7699966430664,128.47999572753906,126.29000091552734,136100.0,125.9642562866211
2020-11-27,127.30000305175781,126.08000183105469,126.55000305175781,127.23999786376953,67800.0,126.91180419921875
2020-11-30,126.93000030517578,125.69000244140625,126.79000091552734,126.31999969482422,204600.0,125.99417877197266
2020-12-01,128.5800018310547,126.41999816894531,127.1500015258789,127.81999969482422,165800.0,127.49031066894531
2020-12-02,128.0500030517578,125.72000122070312,127.36000061035156,126.26000213623047,133800.0,125.93433380126953
2020-12-03,127.11000061035156,125.1500015258789,126.06999969482422,125.87000274658203,138700.0,125.54534149169922
2020-12-04,127.80000305175781,125.4800033569336,125.4800033569336,127.68000030517578,144600.0,127.35066986083984
2020-12-07,128.99000549316406,127.63999938964844,127.98999786376953,128.6300048828125,115000.0,128.29823303222656
2020-12-08,130.89999389648438,127.94000244140625,128.2899932861328,129.19000244140625,162100.0,128.85678100585938
2020-12-09,130.17999267578125,128.66000366210938,129.1300048828125,129.52999877929688,144800.0,129.19589233398438
2020-12-10,131.08999633789062,129.02000427246094,129.47000122070312,130.47000122070312,247100.0,130.1334686279297
2020-12-11,131.10000610351562,129.58999633789062,129.58999633789062,130.4499969482422,165800.0,130.113525390625
2020-12-14,131.99000549316406,128.1999969482422,131.0500030517578,128.41000366210938,205800.0,128.07879638671875
2020-12-15,130.64999389648438,128.30999755859375,128.55999755859375,130.25999450683594,158200.0,129.92401123046875
2020-12-16,131.74000549316406,130.1999969482422,130.99000549316406,131.10000610351562,265400.0,130.76185607910156
2020-12-17,133.69000244140625,131.0,131.2899932861328,133.13999938964844,297700.0,132.7965850830078
2020-12-18,134.6699981689453,133.63999938964844,134.0,134.10000610351562,656300.0,133.75411987304688
2020-12-21,135.0,131.5,132.77999877929688,134.88999938964844,211700.0,134.5420684814453
2020-12-22,136.22000122070312,134.00999450683594,134.64999389648438,134.5,257300.0,134.153076171875
2020-12-23,135.75,134.4499969482422,134.52000427246094,134.52999877929688,191600.0,134.18299865722656
2020-12-24,136.3699951171875,134.64999389648438,135.0,135.6999969482422,84200.0,135.3499755859375
2020-12-28,137.13999938964844,135.05999755859375,136.19000244140625,135.67999267578125,100400.0,135.3300323486328
2020-12-29,136.75,134.83999633789062,136.27000427246094,135.30999755859375,94400.0,134.9609832763672
2020-12-30,137.36000061035156,135.4600067138672,135.91000366210938,136.38999938964844,99000.0,136.0382080078125
2020-12-31,137.32000732421875,135.61000061035156,136.77000427246094,136.88999938964844,169800.0,136.5369110107422
2021-01-04,137.97000122070312,133.67999267578125,135.9199981689453,134.0,315700.0,133.6543731689453
2021-01-05,135.2899932861328,133.5399932861328,134.1300048828125,133.6999969482422,260500.0,133.35513305664062
2021-01-06,137.97000122070312,134.22000122070312,134.22000122070312,137.72000122070312,289300.0,137.36477661132812
2021-01-07,140.0,136.50999450683594,137.52000427246094,139.6999969482422,192400.0,139.33966064453125
2021-01-08,140.6199951171875,137.75999450683594,139.57000732421875,139.07000732421875,140600.0,138.7113037109375
2021-01-11,139.8699951171875,138.3800048828125,139.5,138.7899932861328,115300.0,138.4320068359375
2021-01-12,139.22999572753906,137.08999633789062,138.80999755859375,138.14999389648438,199200.0,137.7936553955078
2021-01-13,139.5800018310547,136.13999938964844,137.9499969482422,138.5800018310547,245000.0,138.22256469726562
2021-01-14,140.7100067138672,137.52000427246094,138.5,139.4499969482422,181200.0,139.09031677246094
2021-01-15,141.3300018310547,138.3699951171875,139.0399932861328,138.8300018310547,149300.0,138.47190856933594
2021-01-19,140.6199951171875,137.25,139.5800018310547,137.25999450683594,222300.0,136.9059600830078
2021-01-20,140.75,137.49000549316406,137.72999572753906,140.6199951171875,254100.0,140.25729370117188
2021-01-21,141.1300048828125,138.00999450683594,140.27000427246094,138.11000061035156,208300.0,137.75376892089844
2021-01-22,138.3800048828125,137.11000061035156,137.86000061035156,138.19000244140625,227800.0,137.83355712890625
2021-01-25,139.9199981689453,137.85000610351562,138.16000366210938,139.57000732421875,187100.0,139.2100067138672
2021-01-26,140.0,137.0800018310547,139.42999267578125,138.85000610351562,125900.0,138.85000610351562
2021-01-27,137.52999877929688,133.14999389648438,137.52999877929688,133.25,186900.0,133.25
2021-01-28,135.8000030517578,133.61000061035156,134.0800018310547,135.25,165800.0,135.25
2021-01-29,135.36000061035156,131.82000732421875,134.42999267578125,132.97000122070312,377800.0,132.97000122070312
2021-02-01,134.38999938964844,131.80999755859375,134.1300048828125,134.08999633789062,184700.0,134.08999633789062
2021-02-02,138.1199951171875,134.74000549316406,135.0500030517578,136.94000244140625,193000.0,136.94000244140625
2021-02-03,137.3000030517578,135.38999938964844,136.16000366210938,136.55999755859375,134700.0,136.55999755859375
2021-02-04,138.39999389648438,135.0,136.1199951171875,138.0,251100.0,138.0
2021-02-05,140.72999572753906,138.72000122070312,139.4600067138672,140.66000366210938,177500.0,140.66000366210938
2021-02-08,142.0,140.52999877929688,141.25,141.97999572753906,171200.0,141.97999572753906
2021-02-09,142.88999938964844,141.22000122070312,141.9600067138672,142.1699981689453,183000.0,142.1699981689453
2021-02-10,144.10000610351562,142.50999450683594,143.0,143.25,151100.0,143.25
2021-02-11,144.32000732421875,142.05999755859375,143.5,142.97000122070312,195800.0,142.97000122070312
2021-02-12,144.75999450683594,142.3800048828125,142.3800048828125,144.6300048828125,105300.0,144.6300048828125
2021-02-16,144.72000122070312,142.89999389648438,144.61000061035156,143.60000610351562,175300.0,143.60000610351562
2021-02-17,144.17999267578125,142.4499969482422,143.75,143.2100067138672,200700.0,143.2100067138672
2021-02-18,143.17999267578125,140.99000549316406,142.6199951171875,140.99000549316406,208700.0,140.99000549316406
2021-02-19,138.57000732421875,131.61000061035156,138.57000732421875,132.24000549316406,492900.0,132.24000549316406
2021-02-22,131.3699951171875,127.5,131.25,129.10000610351562,347100.0,129.10000610351562
2021-02-23,128.72000122070312,126.77999877929688,127.81999969482422,128.27999877929688,490700.0,128.27999877929688
2021-02-24,129.0399932861328,127.80000305175781,128.25999450683594,128.75999450683594,213000.0,128.75999450683594
2021-02-25,130.91000366210938,128.77000427246094,128.77000427246094,130.3000030517578,378600.0,130.3000030517578
2021-02-26,131.57000732421875,129.55999755859375,131.05999755859375,130.07000732421875,386500.0,130.07000732421875
2021-03-01,132.0,129.8800048828125,130.77999877929688,130.60000610351562,283000.0,130.60000610351562
2021-03-02,130.66000366210938,129.47000122070312,130.44000244140625,130.35000610351562,367700.0,130.35000610351562
2021-03-03,132.17999267578125,129.5,130.3699951171875,131.0500030517578,220400.0,131.0500030517578
2021-03-04,131.89999389648438,130.1300048828125,130.88999938964844,130.39999389648438,493600.0,130.39999389648438
2021-03-05,134.13999938964844,130.41000366210938,131.13999938964844,134.08999633789062,204700.0,134.08999633789062
2021-03-08,138.47999572753906,134.10000610351562,134.8300018310547,137.7100067138672,230600.0,137.7100067138672
2021-03-09,140.6699981689453,137.67999267578125,138.67999267578125,137.69000244140625,251500.0,137.69000244140625
2021-03-10,140.1199951171875,137.94000244140625,138.2100067138672,139.3800048828125,150700.0,139.3800048828125
2021-03-11,140.4199981689453,138.74000549316406,139.19000244140625,139.3800048828125,169100.0,139.3800048828125
2021-03-12,141.24000549316406,139.25999450683594,140.0,140.77000427246094,219000.0,140.77000427246094
2021-03-15,143.02999877929688,141.00999450683594,141.77999877929688,142.1300048828125,356200.0,142.1300048828125
2021-03-16,142.10000610351562,139.3300018310547,141.7100067138672,140.5,280700.0,140.5
2021-03-17,141.74000549316406,139.3800048828125,139.91000366210938,141.27999877929688,180900.0,141.27999877929688
2021-03-18,142.47000122070312,140.94000244140625,141.33999633789062,141.50999450683594,174100.0,141.50999450683594
2021-03-19,142.3300018310547,139.0399932861328,142.05999755859375,139.30999755859375,615000.0,139.30999755859375
2021-03-22,141.86000061035156,138.25999450683594,138.97000122070312,141.58999633789062,247700.0,141.58999633789062
2021-03-23,142.55999755859375,140.16000366210938,140.52999877929688,140.77000427246094,330100.0,140.77000427246094
2021-03-24,144.3300018310547,141.16000366210938,141.16000366210938,141.83999633789062,300800.0,141.83999633789062
2021-03-25,143.22999572753906,140.4499969482422,141.39999389648438,142.47000122070312,265600.0,142.47000122070312
2021-03-26,144.82000732421875,142.19000244140625,143.0,144.82000732421875,286800.0,144.82000732421875
2021-03-29,145.89999389648438,143.38999938964844,144.24000549316406,144.77000427246094,272200.0,144.77000427246094
2021-03-30,144.41000366210938,142.60000610351562,144.3300018310547,143.0800018310547,247900.0,143.0800018310547
2021-03-31,143.47000122070312,141.22999572753906,143.02999877929688,141.6699981689453,408600.0,141.6699981689453
2021-04-01,143.97999572753906,141.3800048828125,141.99000549316406,143.8699951171875,228200.0,143.8699951171875
2021-04-05,144.9499969482422,143.33999633789062,144.9499969482422,144.69000244140625,196100.0,144.69000244140625
2021-04-06,145.99000549316406,143.32000732421875,144.0399932861328,145.97000122070312,206100.0,145.97000122070312
2021-04-07,145.5,143.3800048828125,145.27999877929688,143.58999633789062,188000.0,143.58999633789062
2021-04-08,143.9600067138672,142.19000244140625,143.8000030517578,143.67999267578125,158700.0,143.67999267578125
2021-04-09,145.3000030517578,143.27999877929688,144.4199981689453,145.1999969482422,151400.0,145.1999969482422
2021-04-12,146.3800048828125,144.67999267578125,144.67999267578125,146.2100067138672,100800.0,146.2100067138672
2021-04-13,147.00999450683594,145.44000244140625,146.60000610351562,146.3300018310547,160800.0,146.3300018310547
2021-04-14,146.14999389648438,144.5,144.5,145.80999755859375,185100.0,145.80999755859375
